wavelength
460.99
500.92
540.84
580.76
620.69
660.61
700.54
730.48
750.44
770.4
790.37
810.33
830.29
850.25
870.21
890.17
910.14
930.1
950.06
970.02
989.98
1009.95
1029.91
1049.87
1069.83
1089.79
1109.76
1129.72
1149.68
1169.64
1189.6
1209.57
1229.53
1249.49
1269.45
1289.41
1309.38
1329.34
1349.3
1369.26
1389.22
1409.19
1429.15
1449.11
1469.07
1489.03
1508.99
1528.96
1548.92
1578.86
1618.79
1658.71
1698.63
1738.56
1778.48
1818.4
1858.33
1898.25
1938.18
1978.1
2018.02
2057.95
2097.87
2137.8
2177.72
2217.64
2257.57
2297.49
2337.42
2377.34
2417.26
2457.19
2497.11
2537.03
2576.96
2616.88
2656.81
2696.73
2736.65
2776.58
2816.5
2856.43
2896.35
2936.27
2976.2
